x_coord,depth_coord,vs,vp,density
-35614.73764818469,-868.5401,120.449,1658.8700000000001,1912.369
-35458.31415375801,-875.1468550159383,122.34091457286432,1659.484065326633,1912.1887738693467
-35301.89065933134,-881.7536100318763,124.23282914572864,1660.0981306532665,1912.0085477386936
-35145.467164904665,-888.3603650478143,126.12474371859298,1660.7121959798997,1911.8283216080404
-34989.043670477986,-893.8895863917687,128.01665829145728,1661.3262613065326,1911.648095477387
-34832.62017605131,-896.3839269140063,129.90857286432163,1661.9403266331658,1911.4678693467338
-34676.196681624635,-898.8782674362438,131.80048743718592,1662.5543919597992,1911.2876432160804
-34519.77318719796,-901.3726079584812,133.69240201005024,1663.1684572864322,1911.1074170854272
-34363.349692771284,-903.8669484807189,135.5843165829146,1663.7825226130653,1910.9271909547738
-34206.926198344605,-905.1841158200743,137.4762311557789,1664.3965879396985,1910.7469648241206
-34050.50270391793,-906.1732854769316,139.36814572864324,1665.0106532663317,1910.5667386934672
-33894.07920949126,-906.3112493243087,141.26006030150754,1665.6247185929649,1910.386512562814
-33737.65571506458,-906.5330627210143,143.15197487437186,1666.238783919598,1910.2062864321608
-33581.2322206379,-907.4573201283343,145.04388944723618,1666.852849246231,1910.0260603015076
-33424.80872621123,-908.3815775356544,146.9358040201005,1667.4669145728644,1909.8458341708542
-33268.38523178456,-909.3058349429745,148.82771859296483,1668.0809798994976,1909.665608040201
-33111.96173735788,-910.2300923502945,150.71963316582915,1668.6950452261306,1909.4853819095476
-32955.5382429312,-910.6237898115671,152.61154773869345,1669.309110552764,1909.3051557788945
-32799.11474850453,-910.9900112639268,154.5034623115578,1669.9231758793971,1909.124929648241
-32642.691254077854,-911.3562327162864,156.39537688442212,1670.53724120603,1908.9447035175879
-32486.26775965118,-911.722454168646,158.28729145728641,1671.1513065326633,1908.7644773869345
-32329.844265224503,-912.0886756210057,160.17920603015077,1671.7653718592967,1908.5842512562815
-32173.420770797828,-913.033062293142,162.0711206030151,1672.3794371859296,1908.404025125628
-32016.997276371152,-914.0448412229034,163.9630351758794,1672.9935025125628,1908.223798994975
-31860.573781944477,-914.9522012051945,165.8549497487437,1673.607567839196,1908.0435728643217
-31704.1502875178,-915.8595611874856,167.74686432160803,1674.2216331658292,1907.8633467336683
-31547.726793091126,-916.7669211697768,169.63877889447238,1674.8356984924624,1907.6831206030151
-31391.30329866445,-917.6742811520679,171.53069346733668,1675.4497638190956,1907.5028944723617
-31234.879804237775,-918.4615987116849,173.42260804020103,1676.0638291457285,1907.3226683417085
-31078.4563098111,-919.075322641183,175.31452261306532,1676.677894472362,1907.1424422110551
-30922.032815384424,-919.6890465706812,177.20643718592964,1677.291959798995,1906.962216080402
-30765.60932095775,-920.3027705001793,179.09835175879397,1677.906025125628,1906.7819899497488
-30609.185826531073,-920.9164944296774,180.9902663316583,1678.5200904522615,1906.6017638190956
-30452.762332104398,-921.5302183591756,182.88218090452264,1679.1341557788946,1906.4215376884422
-30296.338837677722,-921.027531235754,184.77409547738694,1679.7482211055276,1906.241311557789
-30139.915343251047,-920.9317334142631,186.66601005025123,1680.3622864321608,1906.0610854271356
-29983.49184882437,-920.8733974856788,188.55792462311558,1680.9763517587942,1905.8808592964824
-29827.068354397696,-920.8150615570945,190.4498391959799,1681.5904170854271,1905.700633165829
-29670.64485997102,-920.7567256285101,192.34175376884423,1682.2044824120603,1905.5204070351758
-29514.221365544345,-920.6983896999259,194.23366834170855,1682.8185477386935,1905.3401809045224
-29357.79787111767,-920.1176682089985,196.12558291457287,1683.4326130653267,1905.1599547738695
-29201.374376690994,-919.1201215271683,198.0174974874372,1684.0466783919599,1904.979728643216
-29044.95088226432,-918.1225748453381,199.9094120603015,1684.660743718593,1904.7995025125629
-28888.527387837643,-917.125028163508,201.80132663316581,1685.274809045226,1904.6192763819095
-28732.103893410967,-916.1274814816779,203.69324120603017,1685.8888743718594,1904.4390502512563
-28575.680398984292,-915.1101280512315,205.58515577889446,1686.5029396984926,1904.258824120603
-28419.256904557617,-914.0049457372469,207.4770703517588,1687.1170050251255,1904.0785979899497
-28262.83341013094,-912.9946074376288,209.36898492462313,1687.731070351759,1903.8983718592965
-28106.409915704266,-911.3828782883062,211.26089949748743,1688.3451356783921,1903.718145728643
-27949.98642127759,-909.7711491389836,213.15281407035175,1688.959201005025,1903.53791959799
-27793.562926850915,-908.1594199896609,215.04472864321608,1689.5732663316583,1903.3576934673367
-27637.13943242424,-906.5476908403383,216.93664321608043,1690.1873316582917,1903.1774673366835
-27480.715937997564,-904.9359616910157,218.82855778894472,1690.8013969849246,1902.9972412060301
-27324.29244357089,-903.5452043253006,220.72047236180904,1691.4154623115578,1902.817015075377
-27167.868949144213,-903.0627821334236,222.6123869346734,1692.029527638191,1902.6367889447235
-27011.445454717537,-902.6552616722255,224.5043015075377,1692.6435929648242,1902.4565628140704
-26855.021960290862,-902.292000046646,226.396216080402,1693.2576582914573,1902.276336683417
-26698.598465864186,-901.9287384210666,228.28813065326634,1693.8717236180905,1902.0961105527638
-26542.17497143751,-901.5654767954871,230.18004522613066,1694.4857889447235,1901.9158844221104
-26385.751477010836,-901.2998315347808,232.07195979899498,1695.099854271357,1901.7356582914572
-26229.32798258416,-901.1040844135307,233.9638743718593,1695.71391959799,1901.555432160804
-26072.904488157485,-903.3397590555977,235.85578894472366,1696.327984924623,1901.3752060301508
-25916.48099373081,-905.6855954482819,237.74770351758795,1696.9420502512564,1901.1949798994974
-25760.057499304134,-908.0314318409661,239.63961809045225,1697.5561155778896,1901.0147537688442
-25603.63400487746,-910.3772682336503,241.5315326633166,1698.1701809045226,1900.8345276381908
-25447.210510450783,-912.3125883145351,243.42344723618092,1698.7842462311557,1900.6543015075376
-25290.787016024107,-910.9360169650233,245.31536180904524,1699.3983115577892,1900.4740753768842
-25134.363521597432,-910.4393442989382,247.20727638190957,1700.012376884422,1900.293849246231
-24977.940027170756,-910.6720684548283,249.09919095477386,1700.6264422110553,1900.1136231155779
-24821.51653274408,-910.9047926107185,250.9911055276382,1701.2405075376885,1899.9333969849247
-24665.093038317405,-911.1375167666085,252.8830201005025,1701.8545728643217,1899.7531708542715
-24508.66954389073,-911.3702409224986,254.77493467336686,1702.4686381909548,1899.572944723618
-24352.246049464055,-908.7050383653698,256.66684924623115,1703.082703517588,1899.392718592965
-24195.82255503738,-904.696541153521,258.5587638190955,1703.696768844221,1899.2124924623115
-24039.399060610704,-896.9204452597724,260.4506783919598,1704.3108341708544,1899.0322663316583
-23882.975566184028,-889.1443493660237,262.3425929648241,1704.9248994974876,1898.852040201005
-23726.552071757353,-881.368253472275,264.23450753768844,1705.5389648241205,1898.6718140703517
-23570.128577330677,-873.5921575785262,266.12642211055277,1706.153030150754,1898.4915879396983
-23413.705082904,-869.8027242045976,268.01833668341715,1706.767095477387,1898.3113618090451
-23257.281588477326,-865.2989488143858,269.9102512562814,1707.38116080402,1898.131135678392
-23100.85809405065,-857.5355692994049,271.80216582914574,1707.9952261306532,1897.9509095477388
-22944.434599623975,-849.7721897844241,273.69408040201006,1708.6092914572866,1897.7706834170854
-22788.0111051973,-842.0088102694432,275.5859949748743,1709.2233567839196,1897.5904572864322
-22631.587610770624,-836.1410079584675,277.4779095477387,1709.8374221105528,1897.4102311557788
-22475.16411634395,-837.5774860176208,279.369824120603,1710.451487437186,1897.2300050251256
-22318.740621917274,-840.8871124416446,281.26173869346735,1711.0655527638191,1897.0497788944722
-22162.317127490598,-847.1496421795176,283.1536532663317,1711.6796180904523,1896.869552763819
-22005.893633063923,-853.4121719173905,285.045567839196,1712.2936834170855,1896.6893266331656
-21849.470138637247,-859.6747016552634,286.9374824120603,1712.9077487437185,1896.5091005025126
-21693.04664421057,-867.8348750131588,288.8293969849246,1713.5218140703519,1896.3288743718595
-21536.623149783896,-877.7190984309997,290.72131155778897,1714.135879396985,1896.148648241206
-21380.19965535722,-893.3160194920495,292.6132261306533,1714.749944723618,1895.9684221105529
-21223.776160930545,-910.8075635619223,294.5051407035176,1715.3640100502512,1895.7881959798995
-21067.35266650387,-928.2991076317951,296.39705527638193,1715.9780753768846,1895.6079698492463
-20910.929172077194,-945.7906517016679,298.28896984924626,1716.5921407035175,1895.4277437185929
-20754.50567765052,-956.0059371299133,300.1808844221105,1717.2062060301507,1895.2475175879397
-20598.082183223843,-966.2530675065063,302.07279899497485,1717.8202713567841,1895.0672914572863
-20441.658688797168,-977.9579001427248,303.9647135678392,1718.434336683417,1894.887065326633
-20285.235194370493,-989.6627327789436,305.85662814070355,1719.0484020100503,1894.70683919598
-20128.811699943817,-1001.3675654151621,307.7485427135679,1719.6624673366834,1894.5266130653267
-19972.38820551714,-1007.9110487920391,309.6404572864322,1720.2765326633166,1894.3463869346733
-19815.964711090466,-1007.568989681334,311.5323718592965,1720.8905979899498,1894.1661608040201
-19659.54121666379,-1004.2724078465824,313.4242864321608,1721.504663316583,1893.9859346733667
-19503.117722237115,-1000.4558639207141,315.3162010050251,1722.118728643216,1893.8057085427135
-19346.69422781044,-996.6393199948461,317.20811557788943,1722.7327939698494,1893.6254824120601
-19190.270733383764,-992.8227760689779,319.10003015075375,1723.3468592964825,1893.445256281407
-19033.84723895709,-981.5920216019706,320.99194472361813,1723.9609246231155,1893.2650301507535
-18877.423744530413,-968.0373643206544,322.88385929648246,1724.574989949749,1893.0848040201006
-18721.000250103738,-952.7732275098354,324.7757738693468,1725.189055276382,1892.9045778894472
-18564.576755677062,-937.5090906990163,326.66768844221104,1725.803120603015,1892.724351758794
-18408.153261250387,-922.2449538881971,328.55960301507537,1726.4171859296482,1892.5441256281406
-18251.72976682371,-904.7049720945614,330.4515175879397,1727.0312512562816,1892.3638994974874
-18095.306272397036,-884.8684478101202,332.343432160804,1727.6453165829146,1892.1836733668342
-17938.88277797036,-863.8702379910424,334.2353467336684,1728.2593819095478,1892.0034472361808
-17782.459283543685,-842.8720281719646,336.1272613065327,1728.873447236181,1891.8232211055276
-17626.03578911701,-821.8738183528869,338.019175879397,1729.4875125628141,1891.6429949748742
-17469.612294690334,-800.8623559579354,339.9110904522613,1730.1015778894473,1891.462768844221
-17313.18880026366,-780.5767018923524,341.80300502512563,1730.7156432160805,1891.2825427135679
-17156.765305836983,-763.4855974492168,343.69491959798995,1731.3297085427134,1891.1023165829147
-17000.341811410308,-746.3944930060813,345.5868341708543,1731.9437738693468,1890.9220904522613
-16843.918316983632,-729.3033885629458,347.47874874371865,1732.55783919598,1890.741864321608
-16687.494822556957,-713.1409949776349,349.370663316583,1733.171904522613,1890.5616381909547
-16531.07132813028,-702.2557958219898,351.26257788944724,1733.7859698492462,1890.3814120603015
-16374.647833703606,-701.8457298889016,353.15449246231157,1734.4000351758796,1890.201185929648
-16218.22433927693,-701.5224240007864,355.0464070351759,1735.0141005025125,1890.020959798995
-16061.800844850255,-701.1991181126713,356.93832160804016,1735.6281658291457,1889.8407336683415
-15905.37735042358,-700.8758122245561,358.83023618090454,1736.2422311557789,1889.6605075376885
-15748.953855996904,-708.1950676572766,360.72215075376886,1736.856296482412,1889.4802814070351
-15592.530361570229,-718.4832216010823,362.6140653266332,1737.4703618090452,1889.300055276382
-15436.106867143553,-734.5919349821222,364.5059798994975,1738.0844271356784,1889.1198291457285
-15279.683372716878,-751.6001982957646,366.3978944723618,1738.6984924623116,1888.9396030150754
-15123.259878290202,-770.3775494576273,368.28980904522615,1739.3125577889448,1888.759376884422
-14966.836383863527,-795.2843226367763,370.1817236180904,1739.926623115578,1888.5791507537688
-14810.412889436851,-822.5899574136434,372.07363819095474,1740.540688442211,1888.3989246231154
-14653.989395010176,-851.3972595301941,373.9655527638192,1741.1547537688443,1888.2186984924622
-14497.5659005835,-880.3269305796132,375.85746733668344,1741.7688190954775,1888.038472361809
-14341.142406156825,-909.2566016290322,377.74938190954776,1742.3828844221105,1887.8582462311558
-14184.71891173015,-939.9836763456663,379.6412964824121,1742.9969497487436,1887.6780201005026
-14028.295417303474,-973.1900248307588,381.53321105527635,1743.611015075377,1887.4977939698492
-13871.871922876799,-1005.5651854599366,383.4251256281407,1744.22508040201,1887.317567839196
-13715.448428450123,-1037.9403460891144,385.317040201005,1744.8391457286432,1887.1373417085426
-13559.024934023448,-1070.3155067182922,387.2089547738694,1745.4532110552764,1886.9571155778895
-13402.601439596772,-1101.9581503397396,389.1008693467337,1746.0672763819096,1886.776889447236
-13246.177945170097,-1134.0682739560868,390.992783919598,1746.6813417085427,1886.5966633165829
-13089.754450743421,-1167.3153905334968,392.88469849246235,1747.295407035176,1886.4164371859295
-12933.330956316746,-1200.562507110907,394.7766130653266,1747.909472361809,1886.2362110552765
-12776.90746189007,-1233.809623688317,396.66852763819094,1748.5235376884423,1886.055984924623
-12620.483967463395,-1263.8848171559794,398.56044221105526,1749.1376030150755,1885.87575879397
-12464.06047303672,-1294.0861062635277,400.45235678391964,1749.7516683417084,1885.6955326633165
-12307.636978610044,-1329.030561174127,402.34427135678396,1750.3657336683418,1885.5153065326633
-12151.213484183369,-1363.9750160847261,404.2361859296483,1750.979798994975,1885.33508040201
-11994.789989756693,-1395.5967646166537,406.12810050251255,1751.593864321608,1885.1548542713567
-11838.366495330018,-1422.304511493906,408.0200150753769,1752.2079296482411,1884.9746281407033
-11681.943000903342,-1449.012258371158,409.9119296482412,1752.8219949748745,1884.7944020100501
-11525.519506476667,-1482.4681999565369,411.8038442211055,1753.4360603015075,1884.6141758793967
-11369.096012049991,-1516.622850500024,413.6957587939699,1754.0501256281407,1884.4339497487438
-11212.672517623316,-1541.5546768201896,415.5876733668342,1754.6641909547739,1884.2537236180906
-11056.24902319664,-1566.4865031403554,417.47958793969855,1755.278256281407,1884.0734974874372
-10899.825528769965,-1591.418329460521,419.3715025125628,1755.8923216080402,1883.893271356784
-10743.40203434329,-1618.120367757936,421.26341708542714,1756.5063869346734,1883.7130452261306
-10586.978539916614,-1643.4560195168074,423.15533165829146,1757.1204522613066,1883.5328190954774
-10430.555045489938,-1665.6984817600553,425.0472462311557,1757.7345175879398,1883.352592964824
-10274.131551063263,-1687.9409440033032,426.93916080402016,1758.348582914573,1883.1723668341708
-10117.708056636588,-1710.8416668090276,428.8310753768845,1758.962648241206,1882.9921407035174
-9961.284562209912,-1735.0540876655793,430.7229899497488,1759.5767135678393,1882.8119145728645
-9804.861067783237,-1757.0862455908853,432.6149045226131,1760.1907788944725,1882.631688442211
-9648.437573356561,-1777.752966981239,434.5068190954774,1760.8048442211054,1882.4514623115579
-9492.014078929886,-1798.4196883715929,436.3987336683417,1761.4189095477386,1882.2712361809045
-9335.59058450321,-1819.086409761947,438.290648241206,1762.032974874372,1882.0910100502513
-9179.167090076535,-1840.3583477409602,440.1825628140704,1762.647040201005,1881.9107839195979
-9022.74359564986,-1865.3758786070766,442.07447738693475,1763.2611055276382,1881.7305577889447
-8866.320101223184,-1885.7960743706399,443.966391959799,1763.8751708542713,1881.5503316582913
-8709.896606796508,-1905.2572966818486,445.85830653266333,1764.4892361809045,1881.370105527638
-8553.473112369833,-1924.7185189930576,447.75022110552766,1765.1033015075377,1881.1898793969847
-8397.049617943158,-1946.2128762931459,449.6421356783919,1765.717366834171,1881.0096532663317
-8240.626123516482,-1970.984117215738,451.53405025125625,1766.331432160804,1880.8294271356783
-8084.202629089807,-1998.4134049862396,453.4259648241207,1766.9454974874373,1880.6492010050251
-7927.779134663131,-2026.6480757041113,455.317879396985,1767.5595628140704,1880.468974874372
-7771.355640236456,-2054.8827464219826,457.2097939698493,1768.1736281407034,1880.2887487437185
-7614.93214580978,-2082.490378678504,459.1017085427136,1768.7876934673368,1880.1085226130654
-7458.508651383105,-2111.772436713537,460.9936231155779,1769.40175879397,1879.928296482412
-7302.085156956429,-2146.6185148847853,462.8855376884422,1770.015824120603,1879.7480703517588
-7145.661662529754,-2178.5704354625664,464.7774522613065,1770.629889447236,1879.5678442211054
-6989.238168103078,-2210.2685791082818,466.66936683417083,1771.2439547738695,1879.3876180904524
-6832.814673676403,-2247.5487344017606,468.5612814070352,1771.8580201005025,1879.207391959799
-6676.391179249727,-2287.496138824814,470.45319597989953,1772.4720854271357,1879.0271658291458
-6519.967684823052,-2327.4435432478676,472.34511055276386,1773.0861507537688,1878.8469396984924
-6363.5441903963765,-2366.1677047416347,474.2370251256282,1773.700216080402,1878.6667135678392
-6207.120695969701,-2412.007691586836,476.12893969849245,1774.3142814070352,1878.4864874371858
-6050.697201543026,-2457.32780381733,478.02085427135677,1774.9283467336684,1878.3062613065326
-5894.27370711635,-2502.550176913915,479.9127688442211,1775.5424120603016,1878.1260351758792
-5737.850212689675,-2547.6513384491777,481.80468341708547,1776.1564773869347,1877.945809045226
-5581.426718262999,-2592.0953345558924,483.6965979899498,1776.770542713568,1877.7655829145726
-5425.003223836324,-2636.855234001407,485.5885125628141,1777.3846080402009,1877.5853567839197
-5268.579729409648,-2681.6151334469214,487.4804271356784,1777.9986733668343,1877.4051306532663
-5112.156234982973,-2724.679022641759,489.3723417085427,1778.6127386934675,1877.224904522613
-4955.732740556297,-2758.175883836514,491.26425628140703,1779.2268040201004,1877.0446783919597
-4799.309246129622,-2791.672745031269,493.15617085427135,1779.8408693467336,1876.8644522613065
-4642.885751702946,-2821.8505419522476,495.04808542713573,1780.454934673367,1876.684226130653
-35614.73764818469,-998.5401,158.04704870554423,1687.727300802321,1914.4488671443792
-35458.31415375801,-1005.1468550159383,159.79575524595535,1688.1963525140932,1914.2581917847986
-35301.89065933134,-1011.7536100318763,161.54446178636644,1688.6654042258658,1914.067516425218
-35145.467164904665,-1018.3603650478143,163.29316832677756,1689.134455937638,1913.8768410656373
-34989.043670477986,-1023.8895863917687,165.04187486718865,1689.6035076494102,1913.6861657060567
-34832.62017605131,-1026.3839269140062,166.79058140759977,1690.0725593611826,1913.495490346476
-34676.196681624635,-1028.8782674362437,168.53928794801087,1690.541611072955,1913.3048149868953
-34519.77318719796,-1031.3726079584812,170.287994488422,1691.0106627847272,1913.1141396273147
-34363.349692771284,-1033.8669484807187,172.03670102883308,1691.4797144964996,1912.923464267734
-34206.926198344605,-1035.1841158200743,173.7854075692442,1691.948766208272,1912.7327889081535
-34050.50270391793,-1036.1732854769316,175.5341141096553,1692.4178179200442,1912.5421135485728
-33894.07920949126,-1036.3112493243088,177.2828206500664,1692.8868696318164,1912.351438188992
